Theta (deg)	Intensity	Phi_A (deg)	Micrometer (mm)
41.3581	1.0201	5.5207	13.5000
41.7222	1.0269	4.9679	13.0000
41.9042	1.0260	4.6916	12.7500
42.0863	1.0234	4.4154	12.5000
42.2683	1.0145	4.1392	12.2500
42.4504	1.0031	3.8631	12.0000
42.8145	0.9735	3.3111	11.5000
42.9966	0.9436	3.0351	11.2500
43.1786	0.9129	2.7592	11.0000
43.3607	0.8621	2.4832	10.7500
43.5428	0.8044	2.2073	10.5000
43.7249	0.7216	1.9315	10.2500
43.9070	0.6253	1.6556	10.0000
44.0891	0.5253	1.3797	9.7500
44.2712	0.4180	1.1038	9.5000
44.4534	0.3289	0.8279	9.2500
44.6356	0.2699	0.5520	9.0000
44.8178	0.2330	0.2760	8.7500
45.0000	0.2451	0.0000	8.5000
45.1823	0.2667	-0.2760	8.2500
45.3645	0.3057	-0.5521	8.0000
45.5468	0.3460	-0.8282	7.7500
45.7292	0.3805	-1.1044	7.5000
45.9116	0.4199	-1.3807	7.2500
46.0940	0.4491	-1.6570	7.0000
46.2764	0.4817	-1.9334	6.7500
46.4589	0.5050	-2.2099	6.5000
46.8240	0.5449	-2.7632	6.0000
47.1893	0.5849	-3.3169	5.5000
47.5548	0.6121	-3.8711	5.0000
47.9205	0.6411	-4.4257	4.5000
48.2864	0.6717	-4.9810	4.0000
48.6526	0.7005	-5.5369	3.5000
49.0190	0.7256	-6.0935	3.0000
